time[minutes]	Plasma[kBq/cc]
0.00000	0.000000e+000
0.02000	0.000000e+000
0.04100	0.000000e+000
0.06305	0.000000e+000
0.08620	0.000000e+000
0.11051	0.000000e+000
0.13604	0.000000e+000
0.16284	0.000000e+000
0.19098	0.000000e+000
0.22053	0.000000e+000
0.25156	0.000000e+000
0.28414	0.000000e+000
0.31834	0.000000e+000
0.35426	0.000000e+000
0.39197	0.000000e+000
0.43157	0.000000e+000
0.47315	0.000000e+000
0.51681	5.448816e+000
0.56265	1.844891e+001
0.61078	2.855906e+001
0.66132	3.648703e+001
0.71439	4.280663e+001
0.77010	4.797365e+001
0.82861	5.234257e+001
0.89004	4.258687e+001
0.95454	3.157314e+001
1.02227	2.460657e+001
1.09338	2.028612e+001
1.16805	1.764996e+001
1.24645	1.605586e+001
1.32878	1.508732e+001
1.41522	1.448228e+001
1.50598	1.408106e+001
1.60128	1.378956e+001
1.70134	1.355425e+001
1.80641	1.334581e+001
1.91673	1.314882e+001
2.03256	1.295556e+001
2.15419	1.276239e+001
2.28190	1.256772e+001
2.41600	1.237101e+001
2.55680	1.217218e+001
2.70464	1.197138e+001
2.85987	1.176885e+001
3.02286	1.156489e+001
3.19400	1.135984e+001
3.37370	1.115403e+001
3.56239	1.094781e+001
3.76051	1.074154e+001
3.96853	1.053559e+001
4.18696	1.033031e+001
4.41631	1.012607e+001
4.65712	9.923207e+000
4.90998	9.722055e+000
5.17548	9.522933e+000
5.45425	9.326134e+000
5.74696	9.131927e+000
6.05431	8.940550e+000
6.37703	8.752207e+000
6.71588	8.567067e+000
7.07167	8.385257e+000
7.44526	8.206867e+000
7.83752	8.031941e+000
8.24940	7.860484e+000
8.68187	7.692459e+000
9.13596	7.527791e+000
9.61276	7.366367e+000
10.11340	7.208045e+000
10.63907	7.052653e+000
11.19102	6.900000e+000
11.77057	6.749878e+000
12.37910	6.602069e+000
13.01805	6.456354e+000
13.68896	6.312517e+000
14.39340	6.170354e+000
15.13307	6.029674e+000
15.90973	5.890308e+000
16.72521	5.752112e+000
17.58148	5.614967e+000
18.48055	5.478782e+000
19.42458	5.343496e+000
20.41581	5.209073e+000
21.45660	5.075503e+000
22.54943	4.942797e+000
23.69690	4.810983e+000
24.90174	4.680105e+000
26.16683	4.550212e+000
27.49517	4.421357e+000
28.88993	4.293596e+000
30.35442	4.166975e+000
31.89215	4.041535e+000
33.50675	3.917304e+000
35.20209	3.794300e+000
36.98220	3.672523e+000
38.85131	3.551962e+000
40.81387	3.432593e+000
42.87456	3.314378e+000
45.03829	3.197271e+000
47.31021	3.081222e+000
49.69572	2.966176e+000
52.20050	2.852079e+000
54.83053	2.738883e+000
57.59205	2.626551e+000
60.49166	2.515055e+000
63.53624	2.404390e+000
66.73305	2.294565e+000
70.08970	2.185618e+000
73.61419	2.077608e+000
77.31490	1.970621e+000
81.20064	1.864770e+000
85.28068	1.760193e+000
89.56471	1.657055e+000
94.06295	1.555540e+000
98.78609	1.455852e+000
103.74540	1.358213e+000
108.95267	1.262853e+000
114.42030	1.170010e+000
120.00000	1.082358e+000
